  0.0000000e+000  0.0000000e+000  0.0000000e+000  0.0000000e+000  0.0000000e+000  0.0000000e+000  0.0000000e+000  0.0000000e+000  0.0000000e+000  0.0000000e+000  0.0000000e+000  0.0000000e+000  0.0000000e+000  0.0000000e+000  0.0000000e+000  0.0000000e+000  0.0000000e+000  0.0000000e+000  0.0000000e+000  0.0000000e+000  0.0000000e+000  0.0000000e+000  0.0000000e+000  0.0000000e+000  0.0000000e+000  0.0000000e+000  0.0000000e+000  0.0000000e+000  0.0000000e+000  0.0000000e+000  0.0000000e+000  0.0000000e+000  0.0000000e+000  0.0000000e+000  0.0000000e+000  0.0000000e+000  0.0000000e+000  0.0000000e+000  0.0000000e+000  0.0000000e+000  0.0000000e+000  0.0000000e+000  0.0000000e+000  0.0000000e+000  0.0000000e+000  0.0000000e+000  0.0000000e+000  0.0000000e+000  0.0000000e+000  0.0000000e+000  0.0000000e+000  0.0000000e+000  0.0000000e+000  0.0000000e+000  0.0000000e+000  0.0000000e+000  0.0000000e+000  0.0000000e+000  0.0000000e+000  0.0000000e+000  0.0000000e+000  0.0000000e+000  0.0000000e+000  0.0000000e+000  0.0000000e+000  0.0000000e+000  0.0000000e+000  0.0000000e+000  0.0000000e+000  0.0000000e+000  0.0000000e+000  0.0000000e+000  0.0000000e+000  0.0000000e+000  0.0000000e+000  0.0000000e+000  0.0000000e+000  0.0000000e+000  0.0000000e+000  0.0000000e+000  0.0000000e+000  0.0000000e+000  0.0000000e+000  0.0000000e+000  0.0000000e+000  0.0000000e+000  0.0000000e+000  0.0000000e+000  0.0000000e+000  0.0000000e+000  0.0000000e+000  0.0000000e+000  0.0000000e+000  0.0000000e+000  0.0000000e+000  0.0000000e+000  0.0000000e+000  0.0000000e+000  0.0000000e+000  0.0000000e+000  2.6666667e-003  7.7333333e-003  1.4960000e-002  2.4130667e-002  3.5050933e-002  4.7545840e-002  6.1457923e-002  7.6645464e-002  9.2980917e-002  1.1034949e-001  1.2864788e-001  1.4778309e-001  1.6767145e-001  1.8823764e-001  2.0941387e-001  2.3113915e-001  2.5335857e-001  2.7602271e-001  2.9908711e-001  3.2251173e-001  3.4626056e-001  3.7030117e-001  3.9460438e-001  4.1914395e-001  4.4389622e-001  4.6883993e-001  4.9395594e-001  5.1922701e-001  5.4463764e-001  5.7017388e-001  5.9048982e-001  6.0610751e-001  6.1749676e-001  6.2508041e-001  6.2923904e-001  6.3031514e-001  6.2861696e-001  6.2442193e-001  6.1797973e-001  6.0951509e-001  5.9923025e-001  5.8730723e-001  5.7390984e-001  5.5918552e-001  5.4326697e-001  5.2627360e-001  5.0831291e-001  4.8948162e-001  4.6986679e-001  4.4954678e-001  4.2859210e-001  4.0706622e-001  3.8502627e-001  3.6252364e-001  3.3960461e-001  3.1631082e-001  2.9267973e-001  2.6874509e-001  2.4453725e-001  2.2008353e-001  1.9807517e-001  1.7826766e-001  1.6044089e-001  1.4439680e-001  1.2995712e-001  1.1696141e-001  1.0526527e-001  9.4738742e-002  8.5264867e-002  7.6738381e-002  6.9064543e-002  6.2158088e-002  5.5942280e-002  5.0348052e-002  4.5313246e-002  4.0781922e-002  3.6703730e-002  3.3033357e-002  2.9730021e-002  2.6757019e-002  2.4081317e-002  2.1673185e-002  1.9505867e-002  1.7555280e-002  1.5799752e-002  1.4219777e-002  1.2797799e-002  1.1518019e-002  1.0366217e-002  9.3295956e-003  8.3966360e-003  7.5569724e-003  6.8012752e-003  6.1211477e-003  5.5090329e-003  4.9581296e-003  4.4623167e-003  4.0160850e-003  3.6144765e-003  3.2530288e-003  2.9277260e-003  2.6349534e-003  2.3714580e-003  2.1343122e-003  1.9208810e-003  1.7287929e-003  1.5559136e-003  1.4003222e-003  1.2602900e-003  1.1342610e-003  1.0208349e-003  9.1875143e-004  8.2687629e-004  7.4418866e-004  6.6976979e-004  6.0279281e-004  5.4251353e-004  4.8826218e-004  4.3943596e-004  3.9549236e-004  3.5594313e-004  3.2034881e-004  2.8831393e-004  2.5948254e-004  2.3353429e-004  2.1018086e-004  1.8916277e-004  1.7024649e-004  1.5322185e-004  1.3789966e-004  1.2410969e-004  1.1169873e-004  1.0052885e-004  9.0475967e-005  8.1428371e-005  7.3285533e-005  6.5956980e-005  5.9361282e-005  5.3425154e-005  4.8082639e-005  4.3274375e-005  3.8946937e-005  3.5052243e-005  3.1547019e-005  2.8392317e-005  2.5553086e-005  2.2997777e-005  2.0697999e-005  1.8628199e-005  1.6765379e-005  1.5088841e-005  1.3579957e-005  1.2221962e-005  1.0999765e-005  9.8997889e-006  8.9098100e-006  8.0188290e-006  7.2169461e-006  6.4952515e-006  5.8457263e-006  0.0000000e+000 -4.0000000e-002 -8.0000000e-002 -1.2000000e-001 -1.6000000e-001 -2.0000000e-001 -2.4000000e-001 -2.8000000e-001 -3.2000000e-001 -3.6000000e-001 -1.3333333e-001  1.3333333e-001  4.0000000e-001  6.6666667e-001  9.3333333e-001  1.2000000e+000  1.4666667e+000  1.7333333e+000  2.0000000e+000  2.2666667e+000  2.5333333e+000  2.8000000e+000  3.0666667e+000  3.3333333e+000  3.6000000e+000  3.8666667e+000  4.1333333e+000  4.4000000e+000  4.6666667e+000  4.9333333e+000  5.2000000e+000  5.4666667e+000  5.7333333e+000  6.0000000e+000  6.2666667e+000  6.5333333e+000  6.8000000e+000  7.0666667e+000  7.3333333e+000  7.6000000e+000  7.7333333e+000  7.4666667e+000  7.2000000e+000  6.9333333e+000  6.6666667e+000  6.4000000e+000  6.1333333e+000  5.8666667e+000  5.6000000e+000  5.3333333e+000  5.0666667e+000  4.8000000e+000  4.5333333e+000  4.2666667e+000  4.0000000e+000  3.7333333e+000  3.4666667e+000  3.2000000e+000  2.9333333e+000  2.6666667e+000  2.4000000e+000  2.1333333e+000  1.8666667e+000  1.6000000e+000  1.3333333e+000  1.0666667e+000  8.0000000e-001  5.3333333e-001  2.6666667e-001  0.0000000e+000 -2.6666667e-001 -5.3333333e-001 -8.0000000e-001 -1.0666667e+000 -1.3333333e+000 -1.6000000e+000 -1.8666667e+000 -2.1333333e+000 -2.4000000e+000 -2.6666667e+000 -2.4003333e+000 -2.1336667e+000 -1.8670000e+000 -1.6003333e+000 -1.3336667e+000 -1.0670000e+000 -8.0033333e-001 -5.3366667e-001 -2.6700000e-001 -3.3333333e-004  0.0000000e+000  0.0000000e+000  0.0000000e+000  0.0000000e+000  0.0000000e+000  0.0000000e+000  0.0000000e+000  0.0000000e+000  0.0000000e+000  0.0000000e+000  1.3974360e-010  1.2576924e-010  1.1319232e-010  1.0187309e-010  9.1685777e-011  8.2517200e-011  7.4265480e-011  6.6838932e-011  6.0155039e-011  5.4139535e-011  4.8725581e-011  4.3853023e-011  3.9467721e-011  3.5520949e-011  3.1968854e-011  2.8771968e-011  2.5894772e-011  2.3305294e-011  2.0974765e-011  1.8877288e-011  1.6989560e-011  1.5290604e-011  1.3761543e-011  1.2385389e-011  1.1146850e-011  1.0032165e-011  9.0289486e-012  8.1260537e-012  7.3134483e-012  6.5821035e-012  5.9238932e-012  5.3315038e-012  4.7983535e-012  4.3185181e-012  3.8866663e-012  3.4979997e-012  3.1481997e-012  2.8333797e-012  2.5500418e-012  2.2950376e-012  2.0655338e-012  1.8589804e-012  1.6730824e-012  1.5057742e-012  1.3551967e-012  1.2196771e-012  1.0977094e-012  9.8793843e-013  8.8914458e-013  8.0023012e-013  7.2020711e-013  6.4818640e-013  5.8336776e-013  5.2503098e-013  4.7252789e-013  4.2527510e-013  3.8274759e-013  3.4447283e-013  3.1002555e-013  2.7902299e-013  2.5112069e-013  2.2600862e-013  2.0340776e-013  1.8306698e-013  1.6476029e-013  1.2000000e-003  3.4800000e-003  6.7320000e-003  1.0858800e-002  1.5772920e-002  2.1395628e-002  2.7656065e-002  3.4490459e-002  4.1841413e-002  4.9657272e-002  5.7891544e-002  6.6502390e-002  7.5452151e-002  8.4706936e-002  9.4236242e-002  1.0401262e-001  1.1401136e-001  1.2421022e-001  1.3458920e-001  1.4513028e-001  1.5581725e-001  1.6663553e-001  1.7757197e-001  1.8861478e-001  1.9975330e-001  2.1097797e-001  2.2228017e-001  2.3365215e-001  2.4508694e-001  2.5657825e-001  2.6812042e-001  2.7970838e-001  2.9133754e-001  3.0300379e-001  3.1470341e-001  3.2643307e-001  3.3818976e-001  3.4997078e-001  3.6177371e-001  3.7359634e-001  3.8543670e-001  3.9729303e-001  4.0916373e-001  4.2104736e-001  4.3294262e-001  4.4484836e-001  4.5676352e-001  4.6868717e-001  4.8061845e-001  4.9255661e-001  5.0450095e-001  5.1645085e-001  5.2840577e-001  5.4036519e-001  5.5232867e-001  5.6429580e-001  5.7626622e-001  5.8823960e-001  6.0021564e-001  6.1219408e-001  6.2417467e-001  6.3615720e-001  6.4814148e-001  6.6012733e-001  6.7211460e-001  6.8410314e-001  6.9609283e-001  7.0808354e-001  7.2007519e-001  7.3206767e-001  7.4406090e-001  7.5605481e-001  7.6804933e-001  7.8004440e-001  7.9203996e-001  8.0403596e-001  8.1603237e-001  8.2802913e-001  8.4002622e-001  8.5202360e-001  8.6402124e-001  8.7601911e-001  8.8801720e-001  9.0001548e-001  9.1201393e-001  9.2401254e-001  9.3601129e-001  9.4801016e-001  9.6000914e-001  9.7200823e-001  9.8400740e-001  9.9600666e-001  1.0080060e+000  1.0200054e+000  1.0320049e+000  1.0440044e+000  1.0560039e+000  1.0680035e+000  1.0800032e+000  1.0920029e+000  1.1004026e+000  1.1055623e+000  1.1078061e+000  1.1074255e+000  1.1046829e+000  1.0998146e+000  1.0930332e+000  1.0845299e+000  1.0744769e+000  1.0630292e+000  1.0503263e+000  1.0364936e+000  1.0216443e+000  1.0058798e+000  9.8929186e-001  9.7196268e-001  9.5396641e-001  9.3536977e-001  9.1623279e-001  8.9660951e-001  8.7654856e-001  8.5609371e-001  8.3528433e-001  8.1415590e-001  7.9274031e-001  7.7106628e-001  7.4915965e-001  7.2704369e-001  7.0473932e-001  6.8226539e-001  6.5963885e-001  6.3687496e-001  6.1398747e-001  5.9098872e-001  5.6788985e-001  5.4470086e-001  5.2143078e-001  4.9808770e-001  4.7467893e-001  4.5121104e-001  4.2768993e-001  4.0412094e-001  3.8050885e-001  3.5685796e-001  3.3317216e-001  3.0945495e-001  2.8570945e-001  2.6193851e-001  2.3814466e-001  2.1433019e-001  1.9289717e-001  1.7360746e-001  1.5624671e-001  1.4062204e-001  1.2655983e-001  1.1390385e-001  1.0251347e-001  9.2262120e-002  8.3035908e-002  7.4732317e-002  6.7259085e-002  6.0533177e-002  5.4479859e-002  4.9031873e-002  4.4128686e-002  3.9715817e-002  3.5744235e-002  3.2169812e-002  2.8952831e-002  2.6057548e-002  2.3451793e-002  2.1106614e-002  1.8995952e-002  1.7096357e-002  1.5386721e-002  1.3848049e-002  1.2463244e-002  1.1216920e-002  1.0095228e-002  9.0857051e-003  8.1771346e-003  7.3594211e-003  6.6234790e-003  5.9611311e-003  5.3650180e-003  4.8285162e-003  4.3456646e-003  3.9110981e-003  3.5199883e-003  3.1679895e-003  2.8511905e-003  2.5660715e-003  2.3094643e-003  2.0785179e-003  1.8706661e-003  1.6835995e-003  1.5152395e-003  1.3637156e-003  1.2273440e-003  1.1046096e-003  9.9414866e-004  8.9473380e-004  8.0526042e-004  7.2473438e-004  6.5226094e-004  5.8703485e-004  5.2833136e-004  4.7549822e-004  4.2794840e-004  3.8515356e-004  3.4663821e-004  3.1197439e-004  2.8077695e-004  2.5269925e-004  2.2742933e-004  2.0468639e-004  1.8421775e-004  1.6579598e-004  1.4921638e-004  1.3429474e-004  1.2086527e-004  1.0877874e-004  9.7900868e-005  8.8110781e-005  7.9299703e-005  7.1369733e-005  6.4232759e-005  5.7809483e-005  5.2028535e-005  4.6825682e-005  4.2143113e-005  3.7928802e-005  3.4135922e-005  3.0722330e-005  2.7650097e-005  2.4885087e-005  2.2396578e-005  2.0156920e-005  1.8141228e-005  1.6327106e-005  1.4694395e-005  1.3224956e-005  1.1902460e-005  1.0712214e-005  9.6409926e-006  8.6768933e-006  7.8092040e-006  7.0282836e-006  6.3254552e-006  5.6929097e-006  5.1236187e-006  4.6112569e-006  4.1501312e-006  3.7351181e-006  3.3616063e-006  3.0254456e-006  2.7229011e-006  2.4506110e-006  2.2055499e-006  1.9849949e-006  1.7864954e-006  1.6078459e-006  1.4470613e-006  1.3023551e-006  1.1721196e-006  1.0549077e-006  9.4941690e-007  8.5447521e-007  7.6902769e-007  6.9212492e-007  6.2291243e-007  5.6062118e-007  5.0455907e-007  4.5410316e-007  4.0869284e-007  3.6782356e-007  3.3104120e-007  2.9793708e-007  2.6814337e-007  2.4132904e-007  2.1719613e-007  1.9547652e-007  1.7592887e-007  1.5833598e-007  1.4250238e-007  1.2825214e-007  1.1542693e-007  1.0388424e-007  9.3495813e-008  8.4146232e-008  7.5731609e-008  6.8158448e-008  6.1342603e-008  5.5208343e-008  4.9687509e-008  4.4718758e-008  4.0246882e-008  3.6222194e-008  3.2599974e-008  2.9339977e-008  2.6405979e-008  2.3765381e-008  2.1388843e-008  1.9249959e-008  1.7324963e-008  1.5592467e-008  1.4033220e-008  1.2629898e-008  1.1366908e-008  1.0230217e-008  9.2071957e-009  8.2864761e-009  7.4578285e-009  6.7120456e-009  6.0408411e-009  5.4367570e-009  4.8930813e-009  4.4037731e-009  3.9633958e-009  3.5670562e-009  3.2103506e-009  2.8893156e-009  2.6003840e-009  2.3403456e-009  2.1063110e-009  1.8956799e-009  1.7061119e-009  1.5355007e-009  1.3819507e-009  1.2437556e-009  1.1193800e-009  1.0074420e-009  9.0669784e-010  8.1602805e-010  7.3442525e-010  6.6098272e-010  5.9488445e-010  5.3539601e-010  4.8185641e-010  4.3367076e-010  3.9030369e-010  3.5127332e-010  3.1614599e-010  2.8453139e-010  2.5607825e-010  2.3047042e-010  2.0742338e-010  1.8668104e-010  1.6801294e-010  1.5121165e-010  1.3609048e-010  1.2248143e-010  1.1023329e-010  9.9209961e-011  8.9288965e-011  8.0360068e-011  7.2324061e-011  6.5091655e-011  5.8582490e-011  5.2724241e-011  4.7451817e-011  4.2706635e-011  3.8435972e-011  3.4592374e-011  3.1133137e-011  2.8019823e-011  2.5217841e-011  2.2696057e-011  2.0426451e-011  1.8383806e-011  1.6545425e-011  1.4890883e-011  1.3401795e-011  1.2061615e-011  1.0855454e-011
