  7.3626562e-001  1.3691201e+000  1.8096768e+000  1.9960579e+000  1.9020856e+000  1.5409585e+000  9.6339838e-001  2.5052548e-001 -4.9753462e-001 -1.1757142e+000 -1.6887605e+000 -1.9646144e+000 -1.9645312e+000 -1.6885226e+000 -1.1753549e+000 -4.9710449e-001  2.5096606e-001  9.6378752e-001  1.5412416e+000  1.9022228e+000  1.9960300e+000  1.8094877e+000  1.3687964e+000  7.3585271e-001 -4.4407846e-004 -7.3667850e-001 -1.3694438e+000 -1.8098658e+000 -1.9960857e+000 -1.9019483e+000 -1.5406754e+000 -9.6300920e-001 -2.5008490e-001  4.9796472e-001  1.1760734e+000  1.6889984e+000  1.9646975e+000  1.9644479e+000  1.6882845e+000  1.1749956e+000  4.9667433e-001 -2.5140662e-001 -9.6417661e-001 -1.5415246e+000 -1.9023599e+000 -1.9960020e+000 -1.8092985e+000 -1.3684725e+000 -7.3543976e-001  8.8815689e-004  7.3709133e-001  1.3697674e+000  1.8100548e+000  1.9961135e+000  1.9018109e+000  1.5403922e+000  9.6261997e-001  2.4964430e-001 -4.9839481e-001 -1.1764326e+000 -1.6892362e+000 -1.9647806e+000 -1.9643645e+000 -1.6880464e+000 -1.1746362e+000 -4.9624415e-001  2.5184717e-001  9.6456566e-001  1.5418075e+000  1.9024969e+000  1.9959739e+000  1.8091092e+000  1.3681487e+000  7.3502678e-001 -1.3322353e-003 -7.3750413e-001 -1.3700909e+000 -1.8102436e+000 -1.9961411e+000 -1.9016734e+000 -1.5401090e+000 -9.6223068e-001 -2.4920368e-001  4.9882486e-001  1.1767917e+000  1.6894739e+000  1.9648635e+000  1.9642810e+000  1.6878082e+000  1.1742768e+000  4.9581395e-001 -2.5228771e-001 -9.6495465e-001 -1.5420903e+000 -1.9026338e+000 -1.9959457e+000 -1.8089198e+000 -1.3678247e+000 -7.3461376e-001  1.7763136e-003  7.4058357e-001  1.3781478e+000  1.8253924e+000  2.0202993e+000  1.9365868e+000  1.5873714e+000  1.0232993e+000  3.2540852e-001 -4.0627398e-001 -1.0668012e+000 -1.5610636e+000 -1.8171632e+000 -1.7965259e+000 -1.4993323e+000 -9.6450339e-001 -2.6424457e-001  5.0608680e-001  1.2413663e+000  1.8414601e+000  2.2252824e+000  2.3421779e+000  2.1790315e+000  1.7621051e+000  1.1533447e+000  4.4167583e-001 -2.6948970e-001 -8.7678190e-001 -1.2913940e+000 -1.4515584e+000 -1.3312243e+000 -9.4905235e-001 -3.5534447e-001  3.6917433e-001  1.1247653e+000  1.8067487e+000  2.3202642e+000  2.5936460e+000  2.5885356e+000  2.3053113e+000  1.7830728e+000  1.0941837e+000  3.3413848e-001 -3.9182267e-001 -9.8347017e-001 -1.3596404e+000 -1.4696153e+000 -1.3002279e+000 -8.7769499e-001 -2.6392082e-001  4.5221125e-001  1.1673344e+000  1.7781274e+000  2.1958359e+000  2.3587470e+000  2.2408650e+000  1.8555695e+000  1.2537423e+000  5.1662687e-001 -2.5557763e-001 -9.5778510e-001 -1.4921113e+000 -1.7868440e+000 -1.8035890e+000 -1.5426963e+000 -1.0432410e+000 -3.7756178e-001  3.5887451e-001  1.0608601e+000  1.6282031e+000  1.9797824e+000  2.0649250e+000  1.8705092e+000  1.4227947e+000  7.8372254e-001  4.2204698e-002 -6.9837305e-001 -1.3346807e+000 -1.7779647e+000 -1.9665206e+000 -1.8743655e+000 -1.5148938e+000 -9.3899990e-001 -2.2793525e-001  5.1810012e-001  1.1940272e+000  1.7046437e+000  1.9779920e+000  1.9754640e+000  1.6972208e+000  1.1821680e+000  5.0248953e-001 -2.4649276e-001 -9.5970889e-001 -1.5370996e+000 -1.8976715e+000 -1.9908737e+000 -1.8036991e+000 -1.3625122e+000 -7.2934685e-001  6.8056547e-003  7.4249532e-001  1.3743426e+000  1.8135579e+000  1.9984120e+000  1.9029055e+000  1.5404202e+000  9.6183948e-001  2.4840077e-001 -4.9971449e-001 -1.1774520e+000 -1.6896403e+000 -1.9643579e+000 -1.9630351e+000 -1.6858718e+000 -1.1718089e+000 -4.9305977e-001  2.5503272e-001  9.6738718e-001  1.5439427e+000  1.9037125e+000  1.9961591e+000  1.8082919e+000  1.3664923e+000  7.3280761e-001 -3.7631692e-003 -7.3977000e-001 -1.3718416e+000 -1.8112046e+000 -1.9961515e+000 -1.9007087e+000 -1.5382836e+000 -9.5978230e-001 -2.4645923e-001  5.0149516e-001  1.1790265e+000  1.6909717e+000  1.9654250e+000  1.9638373e+000  1.6864307e+000  1.1721670e+000  4.9327549e-001 -2.5489172e-001 -9.6725258e-001 -1.5437540e+000 -1.9034250e+000 -1.9957488e+000 -1.8077586e+000 -1.3658589e+000 -7.3211626e-001  4.4575463e-003  7.4040781e-001  1.3723675e+000  1.8115752e+000  1.9963427e+000  1.9007183e+000  1.5381328e+000  9.5951241e-001  2.4612628e-001 -5.0182807e-001 -1.1792979e+000 -1.6911355e+000 -2.0054412e+000 -2.0436938e+000 -1.8061385e+000 -1.3317590e+000 -6.9280184e-001  1.5371118e-002  6.8767629e-001  1.2240679e+000  1.5435896e+000  1.8624121e+000  1.9409250e+000  1.7655552e+000  1.3983883e+000  9.2844848e-001  4.5919476e-001  9.3989792e-002 -7.8417816e-002  3.6414871e-003  3.6609647e-001  9.9549331e-001  1.8408853e+000  2.8209883e+000  3.8355978e+000  4.7796624e+000  5.5580392e+000  6.0988567e+000  6.3636095e+000  6.3525663e+000  6.1047324e+000  5.6923714e+000  5.2108551e+000  4.7652684e+000  4.4556499e+000  4.3629409e+000  4.5376169e+000  4.9925985e+000  5.7014360e+000  6.6020250e+000  7.6053289e+000  8.4745510e+000  8.8396665e+000  9.0119392e+000  8.9297186e+000  8.5670985e+000  7.9375561e+000  7.0920584e+000  6.1119043e+000  5.0973057e+000  4.1533124e+000  3.3750572e+000  2.8343946e+000  2.5698082e+000  2.5810060e+000  2.8289609e+000  3.2413923e+000  3.7229186e+000  4.1684535e+000  4.4779656e+000  4.5705285e+000  4.3956873e+000  3.9405447e+000  3.2315728e+000  2.3308950e+000  1.3275603e+000  3.2503652e-001 -5.7332268e-001 -1.2787938e+000 -1.7297452e+000 -1.9002935e+000 -1.8039387e+000 -1.4916686e+000 -1.0447969e+000 -5.6354259e-001 -1.5295386e-001  9.1846364e-002  9.9020731e-002 -1.6989271e-001 -7.1457839e-001 -1.4959875e+000 -1.9088228e+000 -2.3903591e+000 -2.8358420e+000 -3.1452476e+000 -3.2376645e+000 -3.0626581e+000 -2.6073544e+000 -1.8982482e+000 -9.9748158e-001  5.8837551e-003  7.4204255e-001  1.3736455e+000  1.8123150e+000  1.9964384e+000  1.9001549e+000  1.5369879e+000  9.5794547e-001  2.4435615e-001 -5.0355386e-001 -1.1807379e+000 -1.6920832e+000 -1.9657693e+000 -1.9633561e+000 -1.6851825e+000 -1.1703190e+000 -4.9108010e-001  2.5713279e-001  9.6923046e-001  1.5451963e+000  1.9041337e+000  1.9956288e+000  1.8068307e+000  1.3642568e+000  7.3006817e-001 -6.6611646e-003 -7.4245491e-001 -1.3739682e+000 -1.8125028e+000 -1.9964649e+000 -1.9000163e+000 -1.5367037e+000 -9.5755562e-001 -2.4391539e-001  5.0398362e-001  1.1810963e+000  1.6923199e+000  1.9658510e+000  1.9632714e+000  1.6849433e+000  1.1699589e+000  4.9064960e-001 -2.5757318e-001 -9.6961889e-001 -1.5454782e+000 -1.9042695e+000 -1.9955994e+000 -1.8066403e+000 -1.3639321e+000 -7.2965471e-001  7.1052404e-003  7.4286724e-001  1.3742909e+000  1.8126905e+000  1.9964912e+000  1.8998776e+000  1.5364195e+000  9.5716572e-001  2.4347462e-001 -5.0441335e-001 -1.1814547e+000 -1.6925565e+000 -1.9659327e+000 -1.9631866e+000 -1.6847040e+000 -1.1695987e+000 -4.9021908e-001  2.5801355e-001  9.7000726e-001  1.5457600e+000  1.9044052e+000  1.9955699e+000  1.8064497e+000  1.3636072e+000  7.2924122e-001 -7.5493159e-003 -7.4207953e-001 -1.3711335e+000 -1.8061461e+000 -1.9856587e+000 -1.8839659e+000 -1.5147395e+000 -9.2911971e-001 -2.0854338e-001  5.4668448e-001  1.2314702e+000  1.7506846e+000  2.0325166e+000  2.0385539e+000  1.7691716e+000  1.2634747e+000  5.9380116e-001 -1.4444256e-001 -8.4618537e-001 -1.4114525e+000 -1.7594105e+000 -1.8397231e+000 -1.6396236e+000 -1.1857104e+000 -5.4021292e-001  2.0774669e-001  9.5466975e-001  1.5972162e+000  2.0467177e+000  2.2416305e+000  2.1561782e+000  1.8039712e+000  1.2360942e+000  5.3393059e-001 -2.0226896e-001 -8.6746778e-001 -1.3665964e+000 -1.6279060e+000 -1.6130460e+000 -1.3224515e+000 -7.9528180e-001 -1.0392127e-001  6.5618729e-001  1.3799476e+000  1.9673708e+000  2.3376190e+000  2.4403590e+000  2.2628319e+000  1.8316446e+000  1.2090326e+000  4.8411914e-001 -2.3960305e-001 -8.5880762e-001 -1.2848472e+000 -1.4562045e+000 -1.3471323e+000 -9.7127044e-001 -3.7972953e-001  3.4608736e-001  1.1059181e+000  1.7947234e+000  2.3174405e+000  2.6023343e+000  2.6110732e+000  2.3441130e+000  1.8406324e+000  1.1730305e+000  4.3675823e-001 -2.6308856e-001 -8.2652984e-001 -1.1727441e+000 -1.2514200e+000 -1.0498228e+000 -5.9458302e-001  5.2043855e-002  8.0092150e-001  1.5485521e+000  2.1916132e+000  2.6414694e+000  2.8366218e+000  2.7513455e+000  2.3993029e+000  1.8316248e+000  1.1297286e+000  3.9388343e-001 -2.7087353e-001 -7.6948958e-001 -1.0302471e+000 -1.0148364e+000 -7.2373690e-001 -1.9614911e-001  4.9551064e-001  1.2557816e+000  1.9795663e+000  2.5668919e+000  2.9369519e+000  3.0394554e+000  2.8616906e+000  2.4303108e+000  1.8075901e+000  1.0826773e+000  3.5547426e-001 -2.7034087e-001 -7.0582146e-001 -8.8919597e-001 -7.9449981e-001 -4.3518240e-001  1.3781764e-001  8.4325926e-001  1.5810385e+000  2.2462747e+000  2.7440646e+000  3.0028332e+000  2.9844056e+000  2.6893862e+000  2.1570887e+000  1.4600288e+000  6.9375118e-001 -3.6578657e-002 -6.3093520e-001 -1.0084728e+000 -1.1188724e+000 -9.4940200e-001 -5.2669776e-001  8.6982658e-002  8.0251000e-001  1.5164067e+000  2.1253851e+000  2.5408584e+000  2.7013865e+000  2.5813089e+000  2.1943512e+000  1.5917003e+000  8.5481722e-001  8.3997477e-002 -6.1571366e-001 -1.1492736e+000 -1.4449898e+000 -1.4645883e+000 -1.2085876e+000 -7.1622527e-001 -5.9945525e-002  6.6477647e-001  1.3528454e+000  1.9043073e+000  2.2383896e+000  2.3048459e+000  2.0910141e+000  1.6235954e+000  9.6490420e-001  2.0411643e-001 -5.5285533e-001 -1.2029402e+000 -1.6577550e+000 -1.8560508e+000 -1.7723443e+000 -1.4205237e+000 -8.5192166e-001 -1.4812678e-001  5.9045671e-001  1.2586938e+000  1.7614696e+000  2.0270348e+000  2.0170704e+000  1.7320586e+000  1.2112044e+000  5.2692059e-001 -2.2535158e-001 -9.4055474e-001 -1.5187778e+000 -1.8792949e+000 -1.9719089e+000 -1.7840069e+000 -1.3423356e+000 -7.0924944e-001  2.6044554e-002  7.6001258e-001  1.3893330e+000  1.8254056e+000  2.0067936e+000  1.9078504e+000  1.5423198e+000  9.6140428e-001  2.4657152e-001 -5.0188921e-001 -1.1789543e+000 -1.6896179e+000 -1.9622368e+000 -1.9585939e+000 -1.6792668e+000 -1.1635471e+000 -4.8392287e-001  2.6410216e-001  9.7542201e-001  1.5500904e+000  1.9073581e+000  1.9970141e+000  1.8064375e+000  1.3623699e+000  7.2715937e-001 -9.9972949e-003 -7.4558238e-001 -1.3762971e+000 -1.8135703e+000 -1.9959991e+000 -1.8979729e+000 -1.5332707e+000 -9.5312620e-001 -2.3903166e-001  5.0870780e-001  1.1850623e+000  1.6950289e+000  1.9669753e+000  1.9627002e+000  1.6827994e+000  1.1665818e+000  4.8654801e-001 -2.6179212e-001 -9.7333470e-001 -1.5481438e+000 -1.9054880e+000 -1.9951792e+000 -1.8046221e+000 -1.3605829e+000 -7.2543010e-001  1.1625276e-002  7.4705986e-001  1.3775780e+000  1.8146202e+000  1.9968013e+000  1.8985323e+000  1.5336149e+000  9.5330210e-001  2.3910041e-001 -5.0867861e-001 -1.1850073e+000 -1.6948932e+000 -1.9667216e+000 -1.9623135e+000 -1.6822885e+000 -1.1659772e+000 -4.8589786e-001  2.6242981e-001  9.7390029e-001  1.5485848e+000  1.9057667e+000  1.9952783e+000  1.8045473e+000  1.3603623e+000  7.2511069e-001 -1.1984354e-002 -7.4739529e-001 -1.3778311e+000 -1.8147449e+000 -1.9967707e+000 -1.8983424e+000 -1.5332846e+000 -9.5287103e-001 -2.3862292e-001  5.0914100e-001  1.1853946e+000  1.6951556e+000  1.9668262e+000  1.9622493e+000  1.6820677e+000  1.1656339e+000  4.8548283e-001 -2.6285587e-001 -9.7427538e-001 -1.5488543e+000 -1.9058910e+000 -1.9952384e+000 -1.8043474e+000 -1.3600292e+000 -7.2469003e-001  1.2434526e-002  7.4781267e-001  1.3781579e+000  1.8149360e+000  1.9967999e+000  1.8982062e+000  1.5330027e+000  9.5248349e-001  2.3818464e-001 -5.0956807e-001 -1.1857501e+000 -1.6953893e+000 -1.9669050e+000 -1.9621618e+000 -1.6818260e+000 -1.1652717e+000 -4.8505089e-001  2.6329711e-001  9.7466410e-001  1.5491361e+000  1.9060263e+000  1.9952084e+000  1.8041564e+000  1.3597041e+000  7.2427660e-001 -1.2878157e-002 -7.4822412e-001 -1.3784793e+000 -1.8151222e+000 -1.9968247e+000 -1.8980660e+000 -1.5327172e+000 -9.5209277e-001 -2.3774352e-001  5.0999765e-001  1.1861078e+000  1.6956250e+000  1.9669855e+000  1.9620759e+000  1.6815858e+000  1.1649109e+000  4.8462014e-001 -2.6373724e-001 -9.7505179e-001 -1.5494168e+000 -1.9061607e+000 -1.9951776e+000 -1.8039646e+000 -1.3593784e+000 -7.2386261e-001  1.3322257e-002  7.4863596e-001  1.3788011e+000  1.8153087e+000  1.9968497e+000  1.8979260e+000  1.5324319e+000  9.5170223e-001  2.3730260e-001 -5.1042703e-001 -1.1864654e+000 -1.6958604e+000 -1.9670658e+000 -1.9619898e+000 -1.6813453e+000 -1.1645499e+000 -4.8418928e-001  2.6417744e-001  9.7543950e-001  1.5496976e+000  1.9062951e+000  1.9951467e+000  1.8037728e+000  1.3590526e+000  7.2344862e-001 -1.3766323e-002 -7.4904774e-001 -1.3791227e+000 -1.8154950e+000 -1.9968745e+000 -1.8977859e+000 -1.5321465e+000 -9.5131163e-001 -2.3686165e-001  5.1085639e-001  1.1868228e+000  1.6960958e+000  1.9671460e+000  1.9619036e+000  1.6811048e+000  1.1641888e+000  4.8375840e-001 -2.6461762e-001 -9.7582715e-001 -1.5499783e+000 -1.9064294e+000 -1.9951158e+000 -1.8035810e+000 -1.3587268e+000 -7.2303459e-001  1.4210391e-002
